function	id_vd								
Device 									
Input data	vdsbegin=0	vdsend=0.8	t_step=0.01						
vds	Id(vg=0)	Id(vg=0.1)	Id(vg=0.2)	Id(vg=0.3)	Id(vg=0.4)	Id(vg=0.5)	Id(vg=0.6)	Id(vg=0.7)	Id(vg=0.8)
0	0	0	0	0	0	0	0	0	0
0.01	3.16E-12	1.37E-10	5.85E-09	1.58E-07	6.94E-07	1.17E-06	1.50E-06	1.71E-06	1.86E-06
0.02	5.33E-12	2.31E-10	9.89E-09	2.79E-07	1.33E-06	2.30E-06	2.96E-06	3.40E-06	3.71E-06
0.03	6.81E-12	2.95E-10	1.27E-08	3.71E-07	1.91E-06	3.38E-06	4.39E-06	5.07E-06	5.53E-06
0.04	7.82E-12	3.39E-10	1.45E-08	4.38E-07	2.42E-06	4.40E-06	5.78E-06	6.69E-06	7.32E-06
0.05	8.53E-12	3.70E-10	1.58E-08	4.86E-07	2.87E-06	5.37E-06	7.11E-06	8.28E-06	9.08E-06
0.06	9.04E-12	3.92E-10	1.68E-08	5.22E-07	3.26E-06	6.27E-06	8.40E-06	9.83E-06	1.08E-05
0.07	9.44E-12	4.09E-10	1.75E-08	5.49E-07	3.59E-06	7.11E-06	9.63E-06	1.13E-05	1.25E-05
0.08	9.75E-12	4.22E-10	1.81E-08	5.69E-07	3.87E-06	7.88E-06	1.08E-05	1.28E-05	1.41E-05
0.09	1.00E-11	4.32E-10	1.85E-08	5.85E-07	4.10E-06	8.59E-06	1.19E-05	1.42E-05	1.57E-05
0.1	1.02E-11	4.41E-10	1.89E-08	5.98E-07	4.29E-06	9.23E-06	1.30E-05	1.55E-05	1.73E-05
0.11	1.04E-11	4.49E-10	1.92E-08	6.09E-07	4.45E-06	9.81E-06	1.39E-05	1.68E-05	1.88E-05
0.12	1.06E-11	4.56E-10	1.95E-08	6.18E-07	4.58E-06	1.03E-05	1.49E-05	1.80E-05	2.02E-05
0.13	1.07E-11	4.62E-10	1.97E-08	6.26E-07	4.69E-06	1.08E-05	1.57E-05	1.92E-05	2.16E-05
0.14	1.09E-11	4.68E-10	1.99E-08	6.34E-07	4.78E-06	1.12E-05	1.65E-05	2.03E-05	2.29E-05
0.15	1.10E-11	4.73E-10	2.02E-08	6.40E-07	4.86E-06	1.16E-05	1.73E-05	2.13E-05	2.42E-05
0.16	1.11E-11	4.78E-10	2.04E-08	6.46E-07	4.93E-06	1.19E-05	1.80E-05	2.23E-05	2.54E-05
0.17	1.13E-11	4.84E-10	2.06E-08	6.52E-07	4.99E-06	1.22E-05	1.86E-05	2.33E-05	2.65E-05
0.18	1.14E-11	4.89E-10	2.07E-08	0.000000657	5.04E-06	1.24E-05	1.92E-05	2.42E-05	2.76E-05
0.19	1.15E-11	4.93E-10	2.09E-08	6.62E-07	5.09E-06	1.27E-05	1.97E-05	2.50E-05	2.87E-05
0.2	1.16E-11	4.98E-10	2.11E-08	6.67E-07	5.13E-06	1.29E-05	2.02E-05	2.58E-05	2.97E-05
0.21	1.18E-11	5.03E-10	2.13E-08	6.72E-07	5.17E-06	1.30E-05	2.07E-05	2.65E-05	3.06E-05
0.22	1.19E-11	5.08E-10	2.15E-08	6.76E-07	5.20E-06	1.32E-05	2.11E-05	2.72E-05	3.15E-05
0.23	1.20E-11	5.12E-10	2.16E-08	6.81E-07	5.24E-06	1.33E-05	2.14E-05	2.78E-05	3.24E-05
0.24	1.21E-11	5.17E-10	2.18E-08	0.000000685	5.27E-06	1.35E-05	2.18E-05	2.84E-05	3.32E-05
0.25	1.23E-11	5.22E-10	2.20E-08	6.89E-07	5.30E-06	1.36E-05	2.21E-05	2.90E-05	3.40E-05
0.26	1.24E-11	5.26E-10	2.22E-08	6.94E-07	5.33E-06	1.37E-05	2.24E-05	2.95E-05	3.47E-05
0.27	1.25E-11	5.31E-10	2.23E-08	6.98E-07	5.35E-06	1.38E-05	2.27E-05	3.00E-05	3.54E-05
0.28	1.26E-11	5.35E-10	2.25E-08	7.02E-07	5.38E-06	1.39E-05	2.29E-05	3.05E-05	3.60E-05
0.29	1.28E-11	5.40E-10	2.27E-08	7.06E-07	5.40E-06	1.40E-05	2.31E-05	3.09E-05	3.66E-05
0.3	1.29E-11	5.44E-10	2.28E-08	7.10E-07	5.43E-06	1.40E-05	2.33E-05	3.13E-05	3.72E-05
0.31	1.30E-11	5.49E-10	2.30E-08	7.14E-07	5.45E-06	1.41E-05	2.35E-05	3.17E-05	3.78E-05
0.32	1.31E-11	5.54E-10	2.32E-08	7.18E-07	5.47E-06	1.42E-05	2.37E-05	3.20E-05	3.83E-05
0.33	1.33E-11	5.58E-10	2.33E-08	7.22E-07	5.49E-06	1.43E-05	2.39E-05	3.23E-05	3.88E-05
0.34	1.34E-11	5.63E-10	2.35E-08	7.26E-07	5.52E-06	1.43E-05	2.40E-05	3.26E-05	3.92E-05
0.35	1.35E-11	5.67E-10	2.37E-08	7.29E-07	5.54E-06	1.44E-05	2.42E-05	3.29E-05	3.97E-05
0.36	1.37E-11	5.72E-10	2.38E-08	7.33E-07	5.56E-06	1.44E-05	2.43E-05	3.32E-05	4.01E-05
0.37	1.38E-11	5.77E-10	2.40E-08	0.000000737	5.58E-06	1.45E-05	2.44E-05	3.34E-05	4.05E-05
0.38	1.39E-11	5.81E-10	2.42E-08	7.41E-07	5.60E-06	1.45E-05	2.45E-05	3.36E-05	4.08E-05
0.39	1.41E-11	5.86E-10	2.43E-08	7.45E-07	5.61E-06	1.46E-05	2.46E-05	3.39E-05	4.12E-05
0.4	1.42E-11	5.91E-10	2.45E-08	7.48E-07	5.63E-06	1.46E-05	2.47E-05	3.41E-05	4.15E-05
0.41	1.44E-11	5.95E-10	2.47E-08	7.52E-07	5.65E-06	1.47E-05	2.48E-05	3.43E-05	4.18E-05
0.42	1.45E-11	6.00E-10	2.48E-08	7.56E-07	5.67E-06	1.47E-05	2.49E-05	3.44E-05	4.21E-05
0.43	1.47E-11	6.05E-10	2.50E-08	7.60E-07	5.69E-06	1.48E-05	2.50E-05	3.46E-05	4.24E-05
0.44	1.49E-11	6.10E-10	2.52E-08	7.63E-07	5.71E-06	1.48E-05	2.51E-05	3.48E-05	4.27E-05
0.45	1.50E-11	6.14E-10	2.53E-08	0.000000767	5.72E-06	1.48E-05	2.52E-05	3.49E-05	4.29E-05
0.46	1.52E-11	6.19E-10	2.55E-08	7.71E-07	5.74E-06	1.49E-05	2.53E-05	3.51E-05	4.31E-05
0.47	1.54E-11	6.24E-10	2.57E-08	7.74E-07	5.76E-06	1.49E-05	2.54E-05	3.52E-05	4.34E-05
0.48	1.56E-11	6.29E-10	2.58E-08	7.78E-07	5.78E-06	1.50E-05	2.54E-05	3.53E-05	4.36E-05
0.49	1.58E-11	6.34E-10	2.60E-08	7.82E-07	5.79E-06	1.50E-05	2.55E-05	3.55E-05	4.38E-05
0.5	1.60E-11	6.39E-10	2.62E-08	7.86E-07	5.81E-06	1.50E-05	2.56E-05	3.56E-05	4.40E-05
0.51	1.62E-11	6.44E-10	2.64E-08	7.89E-07	5.83E-06	1.51E-05	2.56E-05	3.57E-05	4.42E-05
0.52	1.64E-11	6.49E-10	2.65E-08	7.93E-07	5.84E-06	1.51E-05	2.57E-05	3.58E-05	4.43E-05
0.53	1.66E-11	6.54E-10	2.67E-08	7.97E-07	5.86E-06	1.51E-05	2.58E-05	3.59E-05	4.45E-05
0.54	1.68E-11	6.59E-10	2.69E-08	8.00E-07	5.88E-06	1.52E-05	2.58E-05	3.60E-05	4.47E-05
0.55	1.70E-11	6.64E-10	2.70E-08	8.04E-07	5.89E-06	1.52E-05	2.59E-05	3.61E-05	4.48E-05
0.56	1.73E-11	6.69E-10	2.72E-08	8.08E-07	5.91E-06	1.52E-05	2.59E-05	3.62E-05	4.50E-05
0.57	1.75E-11	6.74E-10	2.74E-08	8.11E-07	5.93E-06	1.53E-05	2.60E-05	3.63E-05	4.51E-05
0.58	1.78E-11	6.79E-10	2.76E-08	0.000000815	5.94E-06	1.53E-05	2.60E-05	3.64E-05	4.52E-05
0.59	1.80E-11	6.84E-10	2.77E-08	8.19E-07	5.96E-06	1.53E-05	2.61E-05	3.65E-05	4.54E-05
0.6	1.83E-11	6.89E-10	2.79E-08	8.22E-07	5.97E-06	1.54E-05	2.61E-05	3.66E-05	4.55E-05
0.61	1.85E-11	6.95E-10	2.81E-08	0.000000826	5.99E-06	1.54E-05	2.62E-05	3.67E-05	4.56E-05
0.62	1.88E-11	7.00E-10	2.83E-08	8.30E-07	6.01E-06	1.54E-05	2.63E-05	3.67E-05	4.57E-05
0.63	1.91E-11	7.05E-10	2.85E-08	8.33E-07	6.02E-06	1.55E-05	2.63E-05	3.68E-05	4.59E-05
0.64	1.94E-11	7.11E-10	2.86E-08	8.37E-07	6.04E-06	1.55E-05	2.63E-05	3.69E-05	4.60E-05
0.65	1.97E-11	7.16E-10	2.88E-08	8.41E-07	6.05E-06	1.55E-05	2.64E-05	3.70E-05	4.61E-05
0.66	2.00E-11	7.21E-10	2.90E-08	8.45E-07	6.07E-06	1.55E-05	2.64E-05	3.70E-05	4.62E-05
0.67	2.03E-11	7.27E-10	2.92E-08	8.48E-07	6.08E-06	1.56E-05	2.65E-05	3.71E-05	4.63E-05
0.68	2.07E-11	7.32E-10	2.94E-08	8.52E-07	6.10E-06	1.56E-05	2.65E-05	3.72E-05	4.64E-05
0.69	2.10E-11	7.38E-10	2.95E-08	8.56E-07	6.11E-06	1.56E-05	2.66E-05	3.72E-05	4.65E-05
0.7	2.13E-11	7.43E-10	2.97E-08	8.59E-07	6.13E-06	1.57E-05	2.66E-05	3.73E-05	4.66E-05
0.71	2.17E-11	7.49E-10	2.99E-08	8.63E-07	6.14E-06	1.57E-05	2.67E-05	3.74E-05	4.67E-05
0.72	2.21E-11	7.55E-10	3.01E-08	8.67E-07	6.16E-06	1.57E-05	2.67E-05	3.74E-05	4.67E-05
0.73	2.24E-11	7.60E-10	3.03E-08	8.71E-07	6.17E-06	1.57E-05	2.68E-05	3.75E-05	4.68E-05
0.74	2.28E-11	7.66E-10	3.05E-08	8.74E-07	6.19E-06	1.58E-05	2.68E-05	3.76E-05	4.69E-05
0.75	2.32E-11	7.72E-10	3.07E-08	0.000000878	6.20E-06	1.58E-05	2.68E-05	3.76E-05	4.70E-05
0.76	2.36E-11	7.78E-10	3.08E-08	8.82E-07	6.22E-06	1.58E-05	2.69E-05	3.77E-05	4.71E-05
0.77	2.40E-11	7.83E-10	3.10E-08	8.86E-07	6.23E-06	1.59E-05	2.69E-05	3.77E-05	4.72E-05
0.78	2.44E-11	7.89E-10	3.12E-08	8.89E-07	6.25E-06	1.59E-05	2.70E-05	3.78E-05	4.72E-05
0.79	2.48E-11	7.95E-10	3.14E-08	0.000000893	6.26E-06	1.59E-05	2.70E-05	3.78E-05	4.73E-05
0.8	2.52E-11	8.01E-10	3.16E-08	8.97E-07	6.28E-06	1.59E-05	2.70E-05	3.79E-05	4.74E-05
function	id_vg								
Device 	L=2e-4	W=6e-4	T=300k						
Input data	vgsbegin=0	vgsend=0.8	t_step=0.01					
vgs	Id(vd=0.05)	Id(vd=0.15)	Id(vd=0.25)	Id(vd=0.35)	Id(vd=0.45)	Id(vd=0.55)	Id(vd=0.65)	Id(vd=0.75)	
0	0	0	0	0	0	0	0	0	
0.01	1.24E-11	1.60E-11	1.80E-11	2.01E-11	2.28E-11	2.62E-11	3.02E-11	3.49E-11	
0.02	1.81E-11	2.34E-11	2.61E-11	2.90E-11	3.24E-11	3.66E-11	4.15E-11	4.71E-11	
0.03	2.64E-11	3.40E-11	3.79E-11	4.18E-11	4.64E-11	5.18E-11	5.79E-11	6.48E-11	
0.04	3.85E-11	4.95E-11	5.50E-11	6.06E-11	6.68E-11	7.38E-11	8.17E-11	9.05E-11	
0.05	5.62E-11	7.22E-11	8.00E-11	8.78E-11	9.63E-11	1.06E-10	1.16E-10	1.28E-10	
0.06	8.19E-11	1.05E-10	1.16E-10	1.28E-10	1.39E-10	1.52E-10	1.66E-10	1.82E-10	
0.07	1.19E-10	1.53E-10	1.69E-10	1.85E-10	2.02E-10	2.20E-10	2.39E-10	2.60E-10	
0.08	1.74E-10	2.23E-10	2.46E-10	2.69E-10	2.92E-10	3.17E-10	3.44E-10	3.73E-10	
9.00E-02	2.54E-10	3.25E-10	3.58E-10	3.91E-10	4.24E-10	4.59E-10	4.97E-10	5.37E-10	
0.1	3.70E-10	4.73E-10	5.22E-10	5.68E-10	6.15E-10	6.65E-10	7.18E-10	7.75E-10	
0.11	5.39E-10	6.89E-10	7.59E-10	8.25E-10	8.93E-10	9.64E-10	1.04E-09	1.12E-09	
0.12	7.85E-10	1.00E-09	1.10E-09	1.20E-09	1.30E-09	1.40E-09	1.50E-09	1.62E-09	
0.13	1.14E-09	1.46E-09	1.61E-09	1.74E-09	1.88E-09	2.02E-09	2.18E-09	2.34E-09	
0.14	1.67E-09	2.13E-09	2.34E-09	2.53E-09	2.73E-09	2.94E-09	3.15E-09	3.38E-09	
0.15	2.43E-09	3.10E-09	3.40E-09	3.68E-09	3.96E-09	4.25E-09	4.56E-09	4.88E-09	
0.16	3.54E-09	4.51E-09	4.94E-09	5.34E-09	5.75E-09	6.16E-09	6.60E-09	7.06E-09	
0.17	5.15E-09	6.57E-09	7.19E-09	7.76E-09	8.34E-09	8.93E-09	9.55E-09	1.02E-08	
0.18	7.50E-09	9.55E-09	1.04E-08	1.13E-08	1.21E-08	1.29E-08	1.38E-08	1.47E-08	
0.19	1.09E-08	1.39E-08	1.52E-08	1.63E-08	1.75E-08	1.87E-08	2.00E-08	2.13E-08	
0.2	1.58E-08	2.02E-08	2.20E-08	2.37E-08	2.53E-08	2.70E-08	2.88E-08	3.07E-08	
0.21	2.30E-08	2.92E-08	3.18E-08	3.42E-08	3.66E-08	3.90E-08	4.15E-08	4.41E-08	
0.22	3.32E-08	4.23E-08	4.60E-08	4.94E-08	5.27E-08	5.62E-08	5.97E-08	6.33E-08	
0.23	4.79E-08	6.10E-08	6.63E-08	7.11E-08	7.58E-08	8.06E-08	8.55E-08	9.06E-08	
0.24	6.88E-08	8.76E-08	9.52E-08	1.02E-07	1.08E-07	1.15E-07	1.22E-07	1.29E-07	
0.25	9.82E-08	1.25E-07	1.36E-07	1.45E-07	1.54E-07	1.63E-07	1.73E-07	1.83E-07	
0.26	1.39E-07	1.78E-07	1.92E-07	2.05E-07	2.18E-07	2.30E-07	2.43E-07	2.56E-07	
0.27	1.94E-07	2.50E-07	2.70E-07	2.87E-07	3.04E-07	3.21E-07	3.38E-07	3.56E-07	
0.28	2.68E-07	3.47E-07	3.74E-07	3.98E-07	4.20E-07	4.43E-07	4.65E-07	4.88E-07	
0.29	3.65E-07	4.75E-07	5.12E-07	5.43E-07	5.72E-07	6.01E-07	6.31E-07	6.60E-07	
0.3	4.86E-07	6.40E-07	6.89E-07	7.29E-07	7.67E-07	8.04E-07	8.41E-07	8.78E-07	
0.31	6.36E-07	8.48E-07	9.12E-07	9.63E-07	1.01E-06	1.06E-06	1.10E-06	1.15E-06	
0.32	8.13E-07	1.10E-06	1.19E-06	1.25E-06	1.31E-06	1.36E-06	1.42E-06	1.48E-06	
0.33	1.02E-06	1.41E-06	1.51E-06	1.59E-06	1.66E-06	1.73E-06	1.80E-06	1.86E-06	
0.34	1.24E-06	1.76E-06	1.89E-06	1.99E-06	2.07E-06	2.15E-06	2.23E-06	2.31E-06	
0.35	1.49E-06	2.17E-06	2.33E-06	2.45E-06	2.54E-06	2.64E-06	2.73E-06	2.82E-06	
0.36	1.75E-06	2.62E-06	2.83E-06	2.96E-06	3.07E-06	3.18E-06	3.29E-06	3.39E-06	
0.37	2.03E-06	3.13E-06	3.37E-06	3.53E-06	3.66E-06	3.78E-06	3.90E-06	4.01E-06	
0.38	2.31E-06	3.67E-06	3.97E-06	4.15E-06	4.30E-06	4.44E-06	4.57E-06	4.69E-06	
0.39	2.59E-06	4.25E-06	4.61E-06	4.82E-06	4.99E-06	5.14E-06	5.29E-06	5.42E-06	
0.4	2.87E-06	4.86E-06	5.30E-06	5.54E-06	5.72E-06	5.89E-06	6.05E-06	6.20E-06	
0.41	3.15E-06	5.50E-06	6.02E-06	6.29E-06	6.50E-06	6.69E-06	6.86E-06	7.03E-06	
0.42	3.43E-06	6.16E-06	6.78E-06	7.09E-06	7.32E-06	7.52E-06	7.71E-06	7.89E-06	
0.43	3.69E-06	6.83E-06	7.57E-06	7.92E-06	8.17E-06	8.39E-06	8.59E-06	8.78E-06	
0.44	3.96E-06	7.51E-06	8.38E-06	8.77E-06	9.06E-06	9.29E-06	9.51E-06	9.71E-06	
0.45	4.21E-06	8.20E-06	9.22E-06	9.66E-06	9.97E-06	1.02E-05	1.05E-05	1.07E-05	
0.46	4.46E-06	8.89E-06	1.01E-05	1.06E-05	1.09E-05	1.12E-05	1.14E-05	1.17E-05	
0.47	4.70E-06	9.57E-06	1.09E-05	1.15E-05	1.19E-05	1.22E-05	1.24E-05	1.27E-05	
0.48	4.93E-06	1.03E-05	1.18E-05	1.24E-05	1.28E-05	1.32E-05	1.34E-05	1.37E-05	
0.49	5.15E-06	1.09E-05	1.27E-05	1.34E-05	1.38E-05	1.42E-05	1.45E-05	1.47E-05	
0.5	5.37E-06	1.16E-05	1.36E-05	1.44E-05	1.48E-05	1.52E-05	1.55E-05	1.58E-05	
0.51	5.57E-06	1.22E-05	1.45E-05	1.53E-05	1.59E-05	1.62E-05	1.66E-05	1.69E-05	
0.52	5.77E-06	1.28E-05	1.54E-05	1.63E-05	1.69E-05	1.73E-05	1.76E-05	1.80E-05	
0.53	5.97E-06	1.35E-05	1.62E-05	1.73E-05	1.79E-05	1.84E-05	1.87E-05	1.91E-05	
0.54	6.15E-06	1.41E-05	1.71E-05	1.83E-05	1.90E-05	1.94E-05	1.98E-05	2.02E-05	
0.55	6.33E-06	1.46E-05	1.80E-05	1.93E-05	2.00E-05	2.05E-05	2.09E-05	2.13E-05	
0.56	6.50E-06	1.52E-05	1.88E-05	2.03E-05	2.10E-05	2.16E-05	2.20E-05	2.24E-05	
0.57	6.66E-06	1.57E-05	1.97E-05	2.13E-05	2.21E-05	2.27E-05	2.31E-05	2.35E-05	
0.58	6.82E-06	1.63E-05	2.05E-05	2.22E-05	2.31E-05	2.37E-05	2.42E-05	2.46E-05	
0.59	6.97E-06	1.68E-05	2.13E-05	2.32E-05	2.42E-05	2.48E-05	2.53E-05	2.57E-05	
0.6	7.11E-06	1.73E-05	2.21E-05	2.42E-05	2.52E-05	2.59E-05	2.64E-05	2.68E-05	
0.61	0.000007252	0.00001774	2.29E-05	2.51E-05	2.62E-05	2.69E-05	2.75E-05	2.79E-05	
0.62	0.000007385	0.0000182	2.36E-05	2.60E-05	2.72E-05	2.80E-05	2.86E-05	2.91E-05	
0.63	0.000007514	0.00001865	2.44E-05	2.70E-05	2.82E-05	2.91E-05	2.97E-05	3.02E-05	
0.64	0.000007637	0.00001907	2.51E-05	2.79E-05	2.92E-05	3.01E-05	3.07E-05	3.12E-05	
0.65	0.000007756	0.00001949	2.58E-05	2.87E-05	3.02E-05	3.11E-05	3.18E-05	3.23E-05	
0.66	0.00000787	0.00001989	2.65E-05	2.96E-05	3.12E-05	3.22E-05	3.29E-05	3.34E-05	
0.67	0.000007979	0.00002027	2.71E-05	3.05E-05	3.22E-05	3.32E-05	3.39E-05	3.45E-05	
0.68	0.000008085	0.00002064	2.78E-05	3.13E-05	3.31E-05	3.42E-05	3.49E-05	3.55E-05	
0.69	0.000008186	0.000021	2.84E-05	3.21E-05	3.40E-05	3.52E-05	3.60E-05	3.66E-05	
0.7	0.000008284	0.00002134	2.90E-05	3.29E-05	3.49E-05	3.61E-05	3.70E-05	3.76E-05	
0.71	0.000008377	0.00002167	2.96E-05	3.37E-05	3.58E-05	3.71E-05	3.80E-05	3.86E-05	
0.72	0.000008468	0.00002199	3.01E-05	3.44E-05	3.67E-05	3.80E-05	3.89E-05	3.96E-05	
0.73	0.000008555	0.0000223	3.07E-05	3.52E-05	3.75E-05	3.89E-05	3.99E-05	4.06E-05	
0.74	0.000008638	0.0000226	3.12E-05	3.59E-05	3.84E-05	3.98E-05	4.08E-05	4.16E-05	
0.75	0.000008719	0.00002288	3.17E-05	3.66E-05	3.92E-05	4.07E-05	4.18E-05	4.25E-05	
0.76	0.000008796	0.00002316	3.22E-05	3.72E-05	4.00E-05	4.16E-05	4.27E-05	4.35E-05	
0.77	0.000008871	0.00002342	3.27E-05	3.79E-05	4.07E-05	4.24E-05	4.35E-05	4.44E-05	
0.78	0.000008943	0.00002368	3.31E-05	3.85E-05	4.15E-05	4.32E-05	4.44E-05	4.53E-05	
0.79	0.000009013	0.00002392	3.36E-05	3.91E-05	4.22E-05	4.40E-05	4.53E-05	4.61E-05	
0.8	0.00000908	0.00002416	3.40E-05	3.97E-05	4.29E-05	4.48E-05	4.61E-05	4.70E-05	
